Sample:	' ANDI+ Fe3+
File name:	AgNP - 04.03.UDS
Run Date:	'10:16:32, 03/10/2022
Operator:	lab
Comment:	'

Instrument
Model:	U-2900 Spectrophotometer
Serial Number:	'
ROM Version:	2J15301 07

Instrument Parameters
Measurement Type:	Wavelength Scan
Data Mode:	Abs
Start Wavelength:	600.0 nm
End Wavelength:	280.0 nm
Scan Speed:	800 nm/min
Sampling Interval:	1.0 nm
Delay:	0 s
Cycle Time:	0.0 min
Replicates:	1
Auto Zero before each run:	Off
Slit Width:	1.50 nm
Lamp Change Mode:	Auto
Lamp Change Wavelength:	340.0 nm
Baseline Correction:	None
Response:	Medium
D2 Lamp:	On
WI Lamp:	On
Path Correct:	On
Path Length:	10.0 mm

Data Points
nm	Abs
600.0	0.138
599.0	0.138
598.0	0.139
597.0	0.139
596.0	0.140
595.0	0.141
594.0	0.142
593.0	0.142
592.0	0.143
591.0	0.144
590.0	0.144
589.0	0.145
588.0	0.145
587.0	0.145
586.0	0.145
585.0	0.145
584.0	0.144
583.0	0.144
582.0	0.143
581.0	0.143
580.0	0.143
579.0	0.143
578.0	0.144
577.0	0.145
576.0	0.146
575.0	0.147
574.0	0.148
573.0	0.149
572.0	0.150
571.0	0.151
570.0	0.152
569.0	0.153
568.0	0.154
567.0	0.155
566.0	0.156
565.0	0.157
564.0	0.158
563.0	0.159
562.0	0.160
561.0	0.161
560.0	0.162
559.0	0.163
558.0	0.164
557.0	0.165
556.0	0.167
555.0	0.168
554.0	0.169
553.0	0.170
552.0	0.171
551.0	0.172
550.0	0.174
549.0	0.175
548.0	0.176
547.0	0.177
546.0	0.179
545.0	0.180
544.0	0.182
543.0	0.183
542.0	0.184
541.0	0.186
540.0	0.188
539.0	0.189
538.0	0.191
537.0	0.192
536.0	0.194
535.0	0.195
534.0	0.197
533.0	0.198
532.0	0.200
531.0	0.202
530.0	0.203
529.0	0.205
528.0	0.206
527.0	0.208
526.0	0.210
525.0	0.212
524.0	0.213
523.0	0.215
522.0	0.217
521.0	0.219
520.0	0.221
519.0	0.223
518.0	0.225
517.0	0.227
516.0	0.229
515.0	0.231
514.0	0.233
513.0	0.235
512.0	0.237
511.0	0.239
510.0	0.242
509.0	0.244
508.0	0.246
507.0	0.249
506.0	0.252
505.0	0.255
504.0	0.257
503.0	0.260
502.0	0.263
501.0	0.266
500.0	0.269
499.0	0.272
498.0	0.275
497.0	0.278
496.0	0.281
495.0	0.284
494.0	0.287
493.0	0.291
492.0	0.294
491.0	0.298
490.0	0.301
489.0	0.305
488.0	0.308
487.0	0.312
486.0	0.316
485.0	0.319
484.0	0.323
483.0	0.326
482.0	0.329
481.0	0.332
480.0	0.335
479.0	0.338
478.0	0.340
477.0	0.343
476.0	0.346
475.0	0.349
474.0	0.351
473.0	0.354
472.0	0.357
471.0	0.361
470.0	0.364
469.0	0.367
468.0	0.370
467.0	0.373
466.0	0.376
465.0	0.379
464.0	0.382
463.0	0.385
462.0	0.388
461.0	0.391
460.0	0.393
459.0	0.396
458.0	0.399
457.0	0.402
456.0	0.404
455.0	0.407
454.0	0.409
453.0	0.412
452.0	0.414
451.0	0.417
450.0	0.419
449.0	0.422
448.0	0.424
447.0	0.426
446.0	0.429
445.0	0.431
444.0	0.434
443.0	0.436
442.0	0.438
441.0	0.441
440.0	0.443
439.0	0.445
438.0	0.447
437.0	0.450
436.0	0.452
435.0	0.454
434.0	0.455
433.0	0.457
432.0	0.459
431.0	0.460
430.0	0.461
429.0	0.463
428.0	0.464
427.0	0.465
426.0	0.466
425.0	0.466
424.0	0.467
423.0	0.467
422.0	0.468
421.0	0.468
420.0	0.468
419.0	0.467
418.0	0.467
417.0	0.466
416.0	0.466
415.0	0.465
414.0	0.464
413.0	0.463
412.0	0.462
411.0	0.461
410.0	0.460
409.0	0.459
408.0	0.457
407.0	0.456
406.0	0.454
405.0	0.453
404.0	0.451
403.0	0.449
402.0	0.447
401.0	0.445
400.0	0.442
399.0	0.439
398.0	0.436
397.0	0.432
396.0	0.428
395.0	0.424
394.0	0.420
393.0	0.415
392.0	0.410
391.0	0.405
390.0	0.400
389.0	0.394
388.0	0.388
387.0	0.382
386.0	0.376
385.0	0.369
384.0	0.363
383.0	0.357
382.0	0.351
381.0	0.345
380.0	0.334
379.0	0.302
378.0	0.262
377.0	0.242
376.0	0.236
375.0	0.231
374.0	0.226
373.0	0.221
372.0	0.217
371.0	0.212
370.0	0.207
369.0	0.203
368.0	0.198
367.0	0.194
366.0	0.189
365.0	0.185
364.0	0.181
363.0	0.176
362.0	0.172
361.0	0.168
360.0	0.165
359.0	0.161
358.0	0.158
357.0	0.155
356.0	0.152
355.0	0.149
354.0	0.147
353.0	0.145
352.0	0.143
351.0	0.142
350.0	0.140
349.0	0.139
348.0	0.137
347.0	0.136
346.0	0.134
345.0	0.131
344.0	0.129
343.0	0.126
342.0	0.122
341.0	0.117
340.0	0.112
339.0	0.107
338.0	0.100
337.0	0.093
336.0	0.087
335.0	0.081
334.0	0.076
333.0	0.070
332.0	0.065
331.0	0.060
330.0	0.056
329.0	0.052
328.0	0.048
327.0	0.045
326.0	0.042
325.0	0.040
324.0	0.038
323.0	0.036
322.0	0.035
321.0	0.034
320.0	0.033
319.0	0.033
318.0	0.033
317.0	0.033
316.0	0.034
315.0	0.034
314.0	0.035
313.0	0.036
312.0	0.038
311.0	0.039
310.0	0.041
309.0	0.042
308.0	0.044
307.0	0.046
306.0	0.049
305.0	0.051
304.0	0.053
303.0	0.056
302.0	0.059
301.0	0.062
300.0	0.064
299.0	0.067
298.0	0.069
297.0	0.072
296.0	0.075
295.0	0.077
294.0	0.079
293.0	0.081
292.0	0.084
291.0	0.086
290.0	0.088
289.0	0.090
288.0	0.092
287.0	0.093
286.0	0.095
285.0	0.097
284.0	0.099
283.0	0.100
282.0	0.102
281.0	0.104
280.0	0.105

